Labels	T2	
Type	Emission Scan	
Comment		
Start	1450.05000	
Stop	1649.55000	
Step	1.050	
Fixed/Offset	850.00	
Xaxis	Wavelength	
Yaxis	Counts	
Scan Corr. by File	False	
Corr. by Ref. Det.	False	
Fixed/Offset Corr. by File	False	
Repeats	1	
Dwell Time	0.20	
Lamp	uF900	
Temp	0.00	
Scan Polariser	None	
Scan Slit	0.00	
Fixed/Offset Polariser	None	
Fixed/Offset Slit	0.00	
Detector	NIR PMT	

1450.05000	2.714E+4	
1451.1000	2.715E+4	
1452.15000	2.741E+4	
1453.2000	2.733E+4	
1454.25000	2.780E+4	
1455.3000	2.831E+4	
1456.35000	2.867E+4	
1457.4000	2.910E+4	
1458.45000	2.959E+4	
1459.5000	3.017E+4	
1460.55000	3.053E+4	
1461.6000	3.124E+4	
1462.65000	3.222E+4	
1463.7000	3.219E+4	
1464.75000	3.298E+4	
1465.8000	3.370E+4	
1466.85000	3.394E+4	
1467.9000	3.488E+4	
1468.95000	3.501E+4	
1470.00	3.656E+4	
1471.05000	3.725E+4	
1472.1000	3.775E+4	
1473.15000	3.897E+4	
1474.2000	3.958E+4	
1475.25000	4.036E+4	
1476.3000	4.169E+4	
1477.35000	4.245E+4	
1478.4000	4.345E+4	
1479.45000	4.432E+4	
1480.5000	4.525E+4	
1481.55000	4.599E+4	
1482.6000	4.659E+4	
1483.65000	4.816E+4	
1484.7000	4.891E+4	
1485.75000	4.962E+4	
1486.8000	5.023E+4	
1487.85000	5.052E+4	
1488.9000	5.076E+4	
1489.95000	5.180E+4	
1491.000	5.160E+4	
1492.05000	5.220E+4	
1493.1000	5.213E+4	
1494.15000	5.267E+4	
1495.2000	5.290E+4	
1496.25000	5.183E+4	
1497.3000	5.230E+4	
1498.35000	5.199E+4	
1499.4000	5.177E+4	
1500.45000	5.110E+4	
1501.5000	5.057E+4	
1502.55000	5.066E+4	
1503.6000	5.006E+4	
1504.65000	5.020E+4	
1505.7000	4.986E+4	
1506.75000	4.970E+4	
1507.8000	4.962E+4	
1508.85000	4.939E+4	
1509.9000	4.999E+4	
1510.95000	4.990E+4	
1512.000	5.046E+4	
1513.05000	5.095E+4	
1514.1000	5.188E+4	
1515.15000	5.274E+4	
1516.2000	5.412E+4	
1517.25000	5.492E+4	
1518.3000	5.685E+4	
1519.35000	5.900E+4	
1520.4000	6.241E+4	
1521.45000	6.550E+4	
1522.5000	6.900E+4	
1523.55000	7.373E+4	
1524.6000	7.848E+4	
1525.65000	8.367E+4	
1526.7000	8.957E+4	
1527.75000	9.646E+4	
1528.8000	1.059E+5	
1529.85000	1.162E+5	
1530.9000	1.267E+5	
1531.95000	1.406E+5	
1533.000	1.598E+5	
1534.05000	1.876E+5	
1535.1000	2.187E+5	
1536.15000	2.384E+5	
1537.2000	2.371E+5	
1538.25000	2.209E+5	
1539.3000	2.007E+5	
1540.35000	1.934E+5	
1541.4000	1.959E+5	
1542.45000	2.019E+5	
1543.5000	2.033E+5	
1544.55000	1.986E+5	
1545.6000	1.877E+5	
1546.65000	1.713E+5	
1547.7000	1.551E+5	
1548.75000	1.413E+5	
1549.8000	1.313E+5	
1550.85000	1.223E+5	
1551.9000	1.143E+5	
1552.95000	1.072E+5	
1554.000	1.004E+5	
1555.05000	9.543E+4	
1556.1000	9.175E+4	
1557.15000	8.960E+4	
1558.2000	8.574E+4	
1559.25000	8.414E+4	
1560.3000	8.265E+4	
1561.35000	8.177E+4	
1562.4000	8.074E+4	
1563.45000	7.982E+4	
1564.5000	7.973E+4	
1565.55000	7.914E+4	
1566.6000	7.675E+4	
1567.65000	7.526E+4	
1568.7000	7.326E+4	
1569.75000	7.120E+4	
1570.8000	6.895E+4	
1571.85000	6.572E+4	
1572.9000	6.144E+4	
1573.95000	5.685E+4	
1575.000	5.246E+4	
1576.05000	4.872E+4	
1577.1000	4.502E+4	
1578.15000	4.222E+4	
1579.2000	4.101E+4	
1580.25000	3.973E+4	
1581.3000	3.834E+4	
1582.35000	3.789E+4	
1583.4000	3.750E+4	
1584.45000	3.691E+4	
1585.5000	3.643E+4	
1586.55000	3.598E+4	
1587.6000	3.557E+4	
1588.65000	3.539E+4	
1589.7000	3.578E+4	
1590.75000	3.595E+4	
1591.8000	3.528E+4	
1592.85000	3.522E+4	
1593.9000	3.483E+4	
1594.95000	3.530E+4	
1596.000	3.502E+4	
1597.05000	3.494E+4	
1598.1000	3.468E+4	
1599.15000	3.506E+4	
1600.2000	3.467E+4	
1601.25000	3.486E+4	
1602.3000	3.441E+4	
1603.35000	3.421E+4	
1604.4000	3.465E+4	
1605.45000	3.475E+4	
1606.5000	3.458E+4	
1607.55000	3.463E+4	
1608.6000	3.476E+4	
1609.65000	3.439E+4	
1610.7000	3.487E+4	
1611.75000	3.468E+4	
1612.8000	3.402E+4	
1613.85000	3.411E+4	
1614.9000	3.410E+4	
1615.95000	3.368E+4	
1617.000	3.374E+4	
1618.05000	3.337E+4	
1619.1000	3.279E+4	
1620.15000	3.258E+4	
1621.2000	3.222E+4	
1622.25000	3.193E+4	
1623.3000	3.140E+4	
1624.35000	3.049E+4	
1625.4000	3.001E+4	
1626.45000	2.979E+4	
1627.5000	2.937E+4	
1628.55000	2.895E+4	
1629.6000	2.825E+4	
1630.65000	2.784E+4	
1631.7000	2.761E+4	
1632.75000	2.771E+4	
1633.8000	2.782E+4	
1634.85000	2.702E+4	
1635.9000	2.685E+4	
1636.95000	2.679E+4	
1638.000	2.649E+4	
1639.05000	2.623E+4	
1640.1000	2.636E+4	
1641.15000	2.603E+4	
1642.2000	2.610E+4	
1643.25000	2.561E+4	
1644.3000	2.591E+4	
1645.35000	2.552E+4	
1646.4000	2.562E+4	
1647.45000	2.557E+4	
1648.5000	2.532E+4	
1649.55000	2.513E+4	
